#time (msec), membrane voltage (mV), stimulus level (nA), m, h, n
    0.10,  -63.21,   0.0,   0.0649,    0.519,    0.349
    0.20,  -63.19,   0.0,    0.065,     0.52,    0.349
    0.30,  -63.16,   0.0,   0.0652,     0.52,    0.349
    0.40,  -63.14,   0.0,   0.0654,     0.52,    0.349
    0.50,  -63.11,   0.0,   0.0656,     0.52,    0.349
    0.60,  -63.08,   0.0,   0.0658,     0.52,    0.349
    0.70,  -63.06,   0.0,    0.066,     0.52,    0.349
    0.80,  -63.03,   0.0,   0.0662,    0.521,    0.349
    0.90,  -63.00,   0.0,   0.0664,    0.521,    0.349
    1.00,  -62.98,   0.0,   0.0666,    0.521,    0.349
    1.10,  -62.95,   0.0,   0.0668,    0.521,    0.349
    1.20,  -62.93,   0.0,    0.067,    0.521,    0.349
    1.30,  -62.90,   0.0,   0.0672,    0.521,    0.349
    1.40,  -62.87,   0.0,   0.0674,    0.521,    0.349
    1.50,  -62.85,   0.0,   0.0676,    0.521,    0.349
    1.60,  -62.82,   0.0,   0.0678,    0.521,    0.349
    1.70,  -62.80,   0.0,    0.068,    0.521,    0.349
    1.80,  -62.78,   0.0,   0.0682,    0.521,    0.349
    1.90,  -62.75,   0.0,   0.0684,    0.521,    0.349
    2.00,  -62.73,   0.0,   0.0686,    0.521,    0.349
    2.10,  -62.70,   0.0,   0.0687,     0.52,    0.349
    2.20,  -62.68,   0.0,   0.0689,     0.52,    0.349
    2.30,  -62.66,   0.0,   0.0691,     0.52,     0.35
    2.40,  -62.64,   0.0,   0.0693,     0.52,     0.35
    2.50,  -62.62,   0.0,   0.0695,     0.52,     0.35
    2.60,  -62.60,   0.0,   0.0696,     0.52,     0.35
    2.70,  -62.58,   0.0,   0.0698,     0.52,     0.35
    2.80,  -62.56,   0.0,     0.07,    0.519,     0.35
    2.90,  -62.54,   0.0,   0.0701,    0.519,     0.35
    3.00,  -62.53,   0.0,   0.0702,    0.519,    0.351
    3.10,  -62.51,   0.0,   0.0704,    0.519,    0.351
    3.20,  -62.50,   0.0,   0.0705,    0.519,    0.351
    3.30,  -62.48,   0.0,   0.0707,    0.518,    0.351
    3.40,  -62.47,   0.0,   0.0708,    0.518,    0.351
    3.50,  -62.46,   0.0,   0.0709,    0.518,    0.351
    3.60,  -62.44,   0.0,    0.071,    0.518,    0.352
    3.70,  -62.43,   0.0,   0.0711,    0.518,    0.352
    3.80,  -62.42,   0.0,   0.0712,    0.517,    0.352
    3.90,  -62.42,   0.0,   0.0713,    0.517,    0.352
    4.00,  -62.41,   0.0,   0.0714,    0.517,    0.352
    4.10,  -62.40,   0.0,   0.0714,    0.517,    0.352
    4.20,  -62.39,   0.0,   0.0715,    0.516,    0.353
    4.30,  -62.39,   0.0,   0.0716,    0.516,    0.353
    4.40,  -62.39,   0.0,   0.0716,    0.516,    0.353
    4.50,  -62.38,   0.0,   0.0716,    0.516,    0.353
    4.60,  -62.38,   0.0,   0.0717,    0.515,    0.353
    4.70,  -62.38,   0.0,   0.0717,    0.515,    0.353
    4.80,  -62.38,   0.0,   0.0717,    0.515,    0.353
    4.90,  -62.38,   0.0,   0.0717,    0.515,    0.354
    5.00,  -62.38,   0.0,   0.0717,    0.514,    0.354
    5.10,  -62.38,   0.0,   0.0717,    0.514,    0.354
    5.20,  -62.19,   2.0,   0.0717,    0.514,    0.354
    5.30,  -62.00,   2.0,   0.0725,    0.514,    0.354
    5.40,  -61.81,   2.0,   0.0737,    0.513,    0.354
    5.50,  -61.63,   2.0,    0.075,    0.513,    0.355
    5.60,  -61.45,   2.0,   0.0765,    0.512,    0.355
    5.70,  -61.26,   2.0,    0.078,    0.511,    0.356
    5.80,  -61.08,   2.0,   0.0796,     0.51,    0.356
    5.90,  -60.89,   2.0,   0.0812,    0.509,    0.357
    6.00,  -60.71,   2.0,   0.0829,    0.508,    0.358
    6.10,  -60.52,   2.0,   0.0846,    0.507,    0.359
    6.20,  -60.32,   2.0,   0.0863,    0.506,    0.359
    6.30,  -60.13,   2.0,   0.0882,    0.504,     0.36
    6.40,  -59.93,   2.0,     0.09,    0.502,    0.361
    6.50,  -59.72,   2.0,    0.092,    0.501,    0.362
    6.60,  -59.51,   2.0,    0.094,    0.499,    0.363
    6.70,  -59.29,   2.0,   0.0961,    0.497,    0.365
    6.80,  -59.06,   2.0,   0.0983,    0.495,    0.366
    6.90,  -58.82,   2.0,    0.101,    0.493,    0.367
    7.00,  -58.57,   2.0,    0.103,     0.49,    0.369
    7.10,  -58.31,   2.0,    0.106,    0.488,     0.37
    7.20,  -58.03,   2.0,    0.109,    0.485,    0.372
    7.30,  -57.73,   2.0,    0.112,    0.483,    0.373
    7.40,  -57.40,   2.0,    0.115,     0.48,    0.375
    7.50,  -57.04,   2.0,    0.118,    0.476,    0.377
    7.60,  -56.64,   2.0,    0.122,    0.473,    0.379
    7.70,  -56.19,   2.0,    0.127,    0.469,    0.381
    7.80,  -55.67,   2.0,    0.132,    0.465,    0.384
    7.90,  -55.05,   2.0,    0.138,    0.461,    0.386
    8.00,  -54.31,   2.0,    0.145,    0.456,    0.389
    8.10,  -53.39,   2.0,    0.154,    0.451,    0.392
    8.20,  -52.20,   2.0,    0.165,    0.445,    0.395
    8.30,  -50.59,   2.0,    0.179,    0.438,    0.399
    8.40,  -48.25,   2.0,    0.198,     0.43,    0.404
    8.50,  -44.59,   2.0,    0.227,    0.419,     0.41
    8.60,  -38.11,   2.0,    0.271,    0.404,    0.419
    8.70,  -24.65,   2.0,    0.349,     0.38,    0.431
    8.73,  -21.17,   2.0,     0.39,     0.37,    0.436
    8.75,  -16.48,   2.0,    0.435,    0.359,    0.443
    8.78,  -10.45,   2.0,    0.484,    0.348,     0.45
    8.79,   -7.36,   2.0,    0.512,    0.342,    0.454
    8.80,   -3.94,   2.0,    0.541,    0.336,    0.458
    8.81,   -0.23,   2.0,    0.571,     0.33,    0.463
    8.83,    3.71,   2.0,    0.602,    0.324,    0.468
    8.84,    7.80,   2.0,    0.634,    0.318,    0.473
    8.85,   11.94,   2.0,    0.665,    0.312,    0.479
    8.86,   16.01,   2.0,    0.697,    0.306,    0.485
    8.88,   19.87,   2.0,    0.727,    0.301,    0.492
    8.89,   23.41,   2.0,    0.757,    0.295,    0.498
    8.90,   26.53,   2.0,    0.785,     0.29,    0.505
    8.93,   32.32,   2.0,    0.835,    0.279,     0.52
    8.95,   35.17,   2.0,    0.876,    0.269,    0.535
    8.98,   36.01,   2.0,    0.909,    0.259,    0.549
    9.00,   35.71,   2.0,    0.933,    0.249,    0.564
    9.03,   34.79,   2.0,     0.95,     0.24,    0.578
    9.05,   33.53,   2.0,    0.963,    0.231,    0.591
    9.08,   32.05,   2.0,    0.972,    0.222,    0.604
    9.10,   30.43,   2.0,    0.978,    0.214,    0.616
    9.13,   28.69,   2.0,    0.983,    0.206,    0.627
    9.15,   26.86,   2.0,    0.986,    0.198,    0.638
    9.18,   24.96,   2.0,    0.989,    0.191,    0.648
    9.20,   23.01,   2.0,     0.99,    0.184,    0.658
    9.23,   21.03,   2.0,    0.991,    0.177,    0.667
    9.25,   19.02,   2.0,    0.992,    0.171,    0.675
    9.28,   16.99,   2.0,    0.992,    0.164,    0.683
    9.30,   14.96,   2.0,    0.993,    0.158,     0.69
    9.33,   12.93,   2.0,    0.992,    0.153,    0.697
    9.35,   10.90,   2.0,    0.992,    0.147,    0.704
    9.38,    8.88,   2.0,    0.991,    0.142,     0.71
    9.40,    6.88,   2.0,     0.99,    0.136,    0.715
    9.43,    4.90,   2.0,    0.989,    0.132,     0.72
    9.45,    2.94,   2.0,    0.988,    0.127,    0.725
    9.48,    1.00,   2.0,    0.987,    0.122,     0.73
    9.50,   -0.91,   2.0,    0.985,    0.118,    0.734
    9.53,   -2.80,   2.0,    0.983,    0.114,    0.738
    9.55,   -4.66,   2.0,    0.981,     0.11,    0.741
    9.58,   -6.49,   2.0,    0.979,    0.106,    0.745
    9.60,   -8.30,   2.0,    0.976,    0.102,    0.748
    9.63,  -10.07,   2.0,    0.973,    0.099,     0.75
    9.65,  -11.83,   2.0,    0.969,   0.0957,    0.753
    9.68,  -13.55,   2.0,    0.965,   0.0927,    0.755
    9.70,  -15.25,   2.0,    0.961,   0.0898,    0.757
    9.73,  -16.93,   2.0,    0.956,    0.087,    0.759
    9.75,  -18.58,   2.0,     0.95,   0.0845,     0.76
    9.78,  -20.21,   2.0,    0.944,   0.0821,    0.762
    9.80,  -21.82,   2.0,    0.937,   0.0798,    0.763
    9.83,  -23.41,   2.0,     0.93,   0.0777,    0.764
    9.85,  -24.98,   2.0,    0.921,   0.0758,    0.765
    9.90,  -29.51,   2.0,    0.904,   0.0724,    0.766
    9.95,  -32.77,   2.0,    0.878,   0.0698,    0.766
   10.00,  -35.99,   2.0,    0.848,   0.0679,    0.766
   10.05,  -39.28,   2.0,    0.813,   0.0666,    0.765
   10.10,  -42.70,   2.0,     0.77,    0.066,    0.763
   10.15,  -46.30,   2.0,     0.72,    0.066,    0.761
   10.20,  -50.11,   2.0,    0.661,   0.0668,    0.758
   10.25,  -54.10,   2.0,    0.592,   0.0682,    0.754
   10.30,  -58.13,   2.0,    0.512,   0.0703,     0.75
   10.35,  -61.94,   2.0,    0.425,   0.0733,    0.745
   10.40,  -65.17,   2.0,    0.335,   0.0771,     0.74
   10.50,  -70.91,   2.0,     0.18,   0.0863,    0.728
   10.60,  -71.35,   2.0,   0.0731,   0.0988,    0.715
   10.70,  -71.37,   2.0,   0.0388,    0.111,    0.702
   10.80,  -71.33,   2.0,   0.0286,    0.124,     0.69
   10.90,  -71.28,   2.0,   0.0257,    0.136,    0.678
   11.00,  -71.23,   2.0,    0.025,    0.148,    0.666
   11.10,  -71.17,   2.0,   0.0249,    0.159,    0.655
   11.20,  -71.11,   2.0,    0.025,    0.171,    0.644
   11.30,  -71.04,   2.0,   0.0251,    0.182,    0.633
   11.40,  -70.97,   2.0,   0.0253,    0.193,    0.622
   11.50,  -70.90,   2.0,   0.0255,    0.203,    0.612
   11.60,  -70.83,   2.0,   0.0257,    0.214,    0.602
   11.70,  -70.75,   2.0,    0.026,    0.224,    0.592
   11.80,  -70.67,   2.0,   0.0262,    0.234,    0.583
   11.90,  -70.59,   2.0,   0.0265,    0.243,    0.574
   12.00,  -70.51,   2.0,   0.0267,    0.253,    0.565
   12.10,  -70.42,   2.0,    0.027,    0.262,    0.557
   12.20,  -70.33,   2.0,   0.0273,    0.271,    0.548
   12.30,  -70.23,   2.0,   0.0276,     0.28,     0.54
   12.40,  -70.13,   2.0,   0.0279,    0.288,    0.532
   12.50,  -70.03,   2.0,   0.0283,    0.297,    0.525
   12.60,  -69.93,   2.0,   0.0286,    0.305,    0.517
   12.70,  -69.82,   2.0,    0.029,    0.313,     0.51
   12.80,  -69.71,   2.0,   0.0294,    0.321,    0.503
   12.90,  -69.60,   2.0,   0.0297,    0.328,    0.497
   13.00,  -69.49,   2.0,   0.0302,    0.336,     0.49
   13.10,  -69.37,   2.0,   0.0306,    0.343,    0.484
   13.20,  -69.25,   2.0,    0.031,     0.35,    0.478
   13.30,  -69.13,   2.0,   0.0315,    0.356,    0.472
   13.40,  -69.00,   2.0,   0.0319,    0.363,    0.466
   13.50,  -68.88,   2.0,   0.0324,    0.369,    0.461
   13.60,  -68.75,   2.0,   0.0329,    0.376,    0.455
   13.70,  -68.62,   2.0,   0.0334,    0.382,     0.45
   13.80,  -68.49,   2.0,    0.034,    0.387,    0.445
   13.90,  -68.35,   2.0,   0.0345,    0.393,    0.441
   14.00,  -68.22,   2.0,   0.0351,    0.399,    0.436
   14.10,  -68.08,   2.0,   0.0356,    0.404,    0.432
   14.20,  -67.94,   2.0,   0.0362,    0.409,    0.427
   14.30,  -67.80,   2.0,   0.0368,    0.414,    0.423
   14.40,  -67.66,   2.0,   0.0375,    0.419,    0.419
   14.50,  -67.51,   2.0,   0.0381,    0.423,    0.416
   14.60,  -67.37,   2.0,   0.0388,    0.428,    0.412
   14.70,  -67.22,   2.0,   0.0394,    0.432,    0.408
   14.80,  -67.08,   2.0,   0.0401,    0.436,    0.405
   14.90,  -66.93,   2.0,   0.0408,     0.44,    0.402
   15.00,  -66.78,   2.0,   0.0415,    0.444,    0.399
   15.10,  -66.64,   2.0,   0.0423,    0.448,    0.396
   15.20,  -66.49,   2.0,    0.043,    0.452,    0.393
   15.30,  -66.34,   2.0,   0.0438,    0.455,    0.391
   15.40,  -66.19,   2.0,   0.0446,    0.458,    0.388
   15.50,  -66.04,   2.0,   0.0454,    0.461,    0.386
   15.60,  -65.89,   2.0,   0.0462,    0.464,    0.383
   15.70,  -65.74,   2.0,    0.047,    0.467,    0.381
   15.80,  -65.59,   2.0,   0.0478,     0.47,    0.379
   15.90,  -65.44,   2.0,   0.0487,    0.472,    0.377
   16.00,  -65.29,   2.0,   0.0495,    0.475,    0.375
   16.10,  -65.14,   2.0,   0.0504,    0.477,    0.374
   16.20,  -65.00,   2.0,   0.0513,    0.479,    0.372
   16.30,  -64.85,   2.0,   0.0522,    0.481,    0.371
   16.40,  -64.70,   2.0,   0.0531,    0.483,    0.369
   16.50,  -64.55,   2.0,    0.054,    0.485,    0.368
   16.60,  -64.40,   2.0,    0.055,    0.487,    0.367
   16.70,  -64.25,   2.0,   0.0559,    0.488,    0.366
   16.80,  -64.11,   2.0,   0.0569,     0.49,    0.365
   16.90,  -63.96,   2.0,   0.0579,    0.491,    0.364
   17.00,  -63.81,   2.0,   0.0589,    0.492,    0.363
   17.10,  -63.66,   2.0,   0.0599,    0.493,    0.362
   17.20,  -63.52,   2.0,   0.0609,    0.494,    0.362
   17.30,  -63.37,   2.0,    0.062,    0.495,    0.361
   17.40,  -63.23,   2.0,    0.063,    0.496,    0.361
   17.50,  -63.08,   2.0,   0.0641,    0.497,     0.36
   17.60,  -62.94,   2.0,   0.0651,    0.497,     0.36
   17.70,  -62.79,   2.0,   0.0662,    0.498,    0.359
   17.80,  -62.65,   2.0,   0.0673,    0.498,    0.359
   17.90,  -62.50,   2.0,   0.0684,    0.498,    0.359
   18.00,  -62.36,   2.0,   0.0696,    0.498,    0.359
   18.10,  -62.21,   2.0,   0.0707,    0.499,    0.359
   18.20,  -62.07,   2.0,   0.0719,    0.499,    0.359
   18.30,  -61.93,   2.0,   0.0731,    0.498,    0.359
   18.40,  -61.78,   2.0,   0.0742,    0.498,    0.359
   18.50,  -61.64,   2.0,   0.0755,    0.498,     0.36
   18.60,  -61.49,   2.0,   0.0767,    0.497,     0.36
   18.70,  -61.35,   2.0,   0.0779,    0.497,     0.36
   18.80,  -61.20,   2.0,   0.0792,    0.496,    0.361
   18.90,  -61.06,   2.0,   0.0805,    0.496,    0.361
   19.00,  -60.91,   2.0,   0.0818,    0.495,    0.362
   19.10,  -60.76,   2.0,   0.0831,    0.494,    0.362
   19.20,  -60.61,   2.0,   0.0845,    0.493,    0.363
   19.30,  -60.46,   2.0,   0.0859,    0.492,    0.364
   19.40,  -60.31,   2.0,   0.0873,    0.491,    0.364
   19.50,  -60.16,   2.0,   0.0887,     0.49,    0.365
   19.60,  -60.01,   2.0,   0.0902,    0.489,    0.366
   19.70,  -59.85,   2.0,   0.0917,    0.487,    0.367
   19.80,  -59.69,   2.0,   0.0932,    0.486,    0.368
   19.90,  -59.53,   2.0,   0.0948,    0.484,    0.369
   20.00,  -59.36,   2.0,   0.0965,    0.483,     0.37
   20.10,  -59.20,   2.0,   0.0982,    0.481,    0.371
   20.20,  -59.02,   2.0,   0.0999,    0.479,    0.372
   20.30,  -58.85,   2.0,    0.102,    0.477,    0.373
   20.40,  -58.66,   2.0,    0.104,    0.475,    0.374
   20.50,  -58.47,   2.0,    0.106,    0.473,    0.376
   20.60,  -58.27,   2.0,    0.108,    0.471,    0.377
   20.70,  -58.06,   2.0,     0.11,    0.469,    0.378
   20.80,  -57.85,   2.0,    0.112,    0.466,     0.38
   20.90,  -57.61,   2.0,    0.115,    0.464,    0.381
   21.00,  -57.36,   2.0,    0.117,    0.461,    0.383
   21.10,  -57.09,   2.0,     0.12,    0.458,    0.385
   21.20,  -56.80,   2.0,    0.123,    0.455,    0.386
   21.30,  -56.48,   2.0,    0.127,    0.452,    0.388
   21.40,  -56.11,   2.0,     0.13,    0.449,     0.39
   21.50,  -55.70,   2.0,    0.135,    0.445,    0.392
   21.60,  -55.23,   2.0,    0.139,    0.441,    0.394
   21.70,  -54.67,   2.0,    0.145,    0.437,    0.397
   21.80,  -53.99,   2.0,    0.152,    0.433,      0.4
   21.90,  -53.15,   2.0,     0.16,    0.428,    0.402
   22.00,  -52.06,   2.0,     0.17,    0.422,    0.406
   22.10,  -50.59,   2.0,    0.183,    0.416,     0.41
   22.20,  -48.50,   2.0,    0.201,    0.408,    0.414
   22.30,  -45.28,   2.0,    0.227,    0.398,     0.42
   22.40,  -39.77,   2.0,    0.266,    0.385,    0.427
   22.50,  -28.93,   2.0,    0.334,    0.365,    0.438
   22.55,  -21.19,   2.0,      0.4,    0.348,    0.447
   22.57,  -16.66,   2.0,    0.444,    0.338,    0.453
   22.60,  -10.91,   2.0,    0.492,    0.327,     0.46
   22.62,   -3.93,   2.0,    0.546,    0.316,    0.468
   22.64,   -0.55,   2.0,    0.575,     0.31,    0.472
   22.65,    3.07,   2.0,    0.606,    0.305,    0.477
   22.66,    6.83,   2.0,    0.636,    0.299,    0.483
   22.67,   10.66,   2.0,    0.667,    0.294,    0.488
   22.69,   14.45,   2.0,    0.697,    0.288,    0.494
   22.70,   18.08,   2.0,    0.727,    0.283,      0.5
   22.71,   21.43,   2.0,    0.756,    0.278,    0.506
   22.72,   24.44,   2.0,    0.783,    0.273,    0.513
   22.75,   30.10,   2.0,    0.832,    0.263,    0.527
   22.77,   33.11,   2.0,    0.873,    0.253,    0.541
   22.80,   34.18,   2.0,    0.905,    0.243,    0.555
   22.82,   34.04,   2.0,    0.929,    0.234,    0.569
   22.85,   33.20,   2.0,    0.947,    0.226,    0.583
   22.87,   31.98,   2.0,     0.96,    0.217,    0.596
   22.90,   30.50,   2.0,     0.97,    0.209,    0.608
   22.92,   28.86,   2.0,    0.977,    0.202,     0.62
   22.95,   27.10,   2.0,    0.982,    0.194,    0.631
   22.97,   25.25,   2.0,    0.985,    0.187,    0.641
   23.00,   23.33,   2.0,    0.988,     0.18,    0.651
   23.02,   21.36,   2.0,    0.989,    0.173,     0.66
   23.05,   19.35,   2.0,    0.991,    0.167,    0.669
   23.07,   17.32,   2.0,    0.991,    0.161,    0.677
   23.10,   15.28,   2.0,    0.992,    0.155,    0.684
   23.12,   13.23,   2.0,    0.992,    0.149,    0.691
   23.15,   11.19,   2.0,    0.991,    0.144,    0.698
   23.17,    9.15,   2.0,    0.991,    0.138,    0.704
   23.20,    7.13,   2.0,     0.99,    0.133,     0.71
   23.22,    5.13,   2.0,    0.989,    0.129,    0.715
   23.25,    3.14,   2.0,    0.988,    0.124,     0.72
   23.27,    1.18,   2.0,    0.987,     0.12,    0.725
   23.30,   -0.75,   2.0,    0.985,    0.115,    0.729
   23.32,   -2.66,   2.0,    0.983,    0.111,    0.733
   23.35,   -4.54,   2.0,    0.981,    0.107,    0.737
   23.37,   -6.39,   2.0,    0.979,    0.104,     0.74
   23.40,   -8.21,   2.0,    0.976,      0.1,    0.743
   23.42,  -10.01,   2.0,    0.973,   0.0968,    0.746
   23.45,  -11.78,   2.0,    0.969,   0.0936,    0.749
   23.47,  -13.52,   2.0,    0.965,   0.0906,    0.751
   23.50,  -15.23,   2.0,    0.961,   0.0878,    0.753
   23.52,  -16.92,   2.0,    0.956,   0.0851,    0.755
   23.55,  -18.58,   2.0,     0.95,   0.0826,    0.757
   23.57,  -20.22,   2.0,    0.944,   0.0802,    0.758
   23.60,  -21.84,   2.0,    0.937,   0.0781,    0.759
   23.62,  -23.44,   2.0,     0.93,   0.0761,     0.76
   23.65,  -25.02,   2.0,    0.921,   0.0742,    0.761
   23.70,  -29.54,   2.0,    0.904,   0.0708,    0.763
   23.75,  -32.82,   2.0,    0.878,   0.0683,    0.763
   23.80,  -36.04,   2.0,    0.848,   0.0665,    0.762
   23.85,  -39.33,   2.0,    0.812,   0.0653,    0.761
   23.90,  -42.75,   2.0,     0.77,   0.0647,     0.76
   23.95,  -46.34,   2.0,    0.719,   0.0648,    0.758
   24.00,  -50.13,   2.0,     0.66,   0.0655,    0.755
   24.05,  -54.09,   2.0,    0.591,    0.067,    0.751
   24.10,  -58.09,   2.0,    0.512,   0.0692,    0.747
   24.15,  -61.86,   2.0,    0.425,   0.0722,    0.742
   24.20,  -65.09,   2.0,    0.336,    0.076,    0.737
   24.30,  -70.81,   2.0,    0.181,   0.0851,    0.725
   24.40,  -71.33,   2.0,   0.0741,   0.0976,    0.713
   24.50,  -71.36,   2.0,   0.0392,     0.11,      0.7
   24.60,  -71.32,   2.0,   0.0288,    0.123,    0.688
   24.70,  -71.27,   2.0,   0.0258,    0.135,    0.675
   24.80,  -71.22,   2.0,    0.025,    0.146,    0.664
   24.90,  -71.16,   2.0,   0.0249,    0.158,    0.652
   25.00,  -71.09,   2.0,    0.025,    0.169,    0.641
   25.10,  -71.03,   2.0,   0.0252,    0.181,    0.631
   25.20,  -70.96,   2.0,   0.0254,    0.191,     0.62
   25.30,  -70.89,   2.0,   0.0256,    0.202,     0.61
   25.40,  -70.82,   2.0,   0.0258,    0.212,      0.6
   25.50,  -70.74,   2.0,    0.026,    0.223,    0.591
   25.60,  -70.66,   2.0,   0.0263,    0.233,    0.581
   25.70,  -70.58,   2.0,   0.0265,    0.242,    0.572
   25.80,  -70.49,   2.0,   0.0268,    0.252,    0.563
   25.90,  -70.40,   2.0,   0.0271,    0.261,    0.555
   26.00,  -70.31,   2.0,   0.0274,     0.27,    0.547
   26.10,  -70.21,   2.0,   0.0277,    0.279,    0.539
   26.20,  -70.11,   2.0,    0.028,    0.287,    0.531
   26.30,  -70.01,   2.0,   0.0283,    0.296,    0.523
   26.40,  -69.91,   2.0,   0.0287,    0.304,    0.516
   26.50,  -69.80,   2.0,   0.0291,    0.312,    0.509
   26.60,  -69.69,   2.0,   0.0294,     0.32,    0.502
   26.70,  -69.58,   2.0,   0.0298,    0.327,    0.495
