#time (msec), membrane voltage (mV), stimulus level (nA), m, h, n
    0.10,  -63.20,   0.0,   0.0649,    0.519,    0.349
    0.20,  -63.18,   0.0,   0.0651,    0.519,    0.349
    0.30,  -63.15,   0.0,   0.0653,     0.52,    0.349
    0.40,  -63.13,   0.0,   0.0655,     0.52,    0.349
    0.50,  -63.10,   0.0,   0.0656,     0.52,    0.349
    0.60,  -63.08,   0.0,   0.0658,     0.52,    0.349
    0.70,  -63.05,   0.0,    0.066,     0.52,    0.349
    0.80,  -63.03,   0.0,   0.0662,     0.52,    0.349
    0.90,  -63.00,   0.0,   0.0664,     0.52,    0.349
    1.00,  -62.97,   0.0,   0.0666,    0.521,    0.349
    1.10,  -62.95,   0.0,   0.0668,    0.521,    0.349
    1.20,  -62.92,   0.0,    0.067,    0.521,    0.349
    1.30,  -62.90,   0.0,   0.0672,    0.521,    0.349
    1.40,  -62.87,   0.0,   0.0674,    0.521,    0.349
    1.50,  -62.85,   0.0,   0.0676,    0.521,    0.349
    1.60,  -62.82,   0.0,   0.0678,    0.521,    0.349
    1.70,  -62.80,   0.0,    0.068,    0.521,    0.349
    1.80,  -62.77,   0.0,   0.0682,    0.521,    0.349
    1.90,  -62.75,   0.0,   0.0684,    0.521,    0.349
    2.00,  -62.73,   0.0,   0.0686,     0.52,    0.349
    2.10,  -62.70,   0.0,   0.0688,     0.52,    0.349
    2.20,  -62.68,   0.0,    0.069,     0.52,    0.349
    2.30,  -62.66,   0.0,   0.0691,     0.52,     0.35
    2.40,  -62.64,   0.0,   0.0693,     0.52,     0.35
    2.50,  -62.62,   0.0,   0.0695,     0.52,     0.35
    2.60,  -62.60,   0.0,   0.0696,     0.52,     0.35
    2.70,  -62.58,   0.0,   0.0698,    0.519,     0.35
    2.80,  -62.56,   0.0,     0.07,    0.519,     0.35
    2.90,  -62.54,   0.0,   0.0701,    0.519,     0.35
    3.00,  -62.53,   0.0,   0.0703,    0.519,    0.351
    3.10,  -62.51,   0.0,   0.0704,    0.519,    0.351
    3.20,  -62.50,   0.0,   0.0705,    0.519,    0.351
    3.30,  -62.48,   0.0,   0.0707,    0.518,    0.351
    3.40,  -62.47,   0.0,   0.0708,    0.518,    0.351
    3.50,  -62.46,   0.0,   0.0709,    0.518,    0.351
    3.60,  -62.45,   0.0,    0.071,    0.518,    0.352
    3.70,  -62.44,   0.0,   0.0711,    0.517,    0.352
    3.80,  -62.43,   0.0,   0.0712,    0.517,    0.352
    3.90,  -62.42,   0.0,   0.0713,    0.517,    0.352
    4.00,  -62.41,   0.0,   0.0713,    0.517,    0.352
    4.10,  -62.40,   0.0,   0.0714,    0.516,    0.352
    4.20,  -62.40,   0.0,   0.0715,    0.516,    0.353
    4.30,  -62.39,   0.0,   0.0715,    0.516,    0.353
    4.40,  -62.39,   0.0,   0.0716,    0.516,    0.353
    4.50,  -62.39,   0.0,   0.0716,    0.516,    0.353
    4.60,  -62.38,   0.0,   0.0717,    0.515,    0.353
    4.70,  -62.38,   0.0,   0.0717,    0.515,    0.353
    4.80,  -62.38,   0.0,   0.0717,    0.515,    0.353
    4.90,  -62.38,   0.0,   0.0717,    0.515,    0.354
    5.00,  -62.38,   0.0,   0.0717,    0.514,    0.354
    5.10,  -62.39,   0.0,   0.0717,    0.514,    0.354
    5.20,  -62.39,   0.0,   0.0717,    0.514,    0.354
    5.30,  -62.39,   0.0,   0.0717,    0.514,    0.354
    5.40,  -62.40,   0.0,   0.0716,    0.514,    0.354
    5.50,  -62.41,   0.0,   0.0716,    0.513,    0.354
    5.60,  -62.41,   0.0,   0.0716,    0.513,    0.354
    5.70,  -62.42,   0.0,   0.0715,    0.513,    0.355
    5.80,  -62.43,   0.0,   0.0715,    0.513,    0.355
    5.90,  -62.44,   0.0,   0.0714,    0.513,    0.355
    6.00,  -62.44,   0.0,   0.0714,    0.513,    0.355
    6.10,  -62.45,   0.0,   0.0713,    0.512,    0.355
    6.20,  -62.46,   0.0,   0.0712,    0.512,    0.355
    6.30,  -62.47,   0.0,   0.0711,    0.512,    0.355
    6.40,  -62.49,   0.0,   0.0711,    0.512,    0.355
    6.50,  -62.50,   0.0,    0.071,    0.512,    0.355
    6.60,  -62.51,   0.0,   0.0709,    0.512,    0.355
    6.70,  -62.52,   0.0,   0.0708,    0.512,    0.355
    6.80,  -62.53,   0.0,   0.0707,    0.512,    0.355
    6.90,  -62.55,   0.0,   0.0706,    0.512,    0.355
    7.00,  -62.56,   0.0,   0.0705,    0.512,    0.355
    7.10,  -62.57,   0.0,   0.0704,    0.512,    0.355
    7.20,  -62.58,   0.0,   0.0703,    0.512,    0.355
    7.30,  -62.60,   0.0,   0.0702,    0.511,    0.355
    7.40,  -62.61,   0.0,   0.0701,    0.511,    0.355
    7.50,  -62.62,   0.0,     0.07,    0.511,    0.355
    7.60,  -62.64,   0.0,   0.0699,    0.511,    0.355
    7.70,  -62.65,   0.0,   0.0698,    0.511,    0.355
    7.80,  -62.66,   0.0,   0.0697,    0.511,    0.355
    7.90,  -62.68,   0.0,   0.0696,    0.511,    0.355
    8.00,  -62.69,   0.0,   0.0695,    0.512,    0.355
    8.10,  -62.70,   0.0,   0.0694,    0.512,    0.355
    8.20,  -62.71,   0.0,   0.0693,    0.512,    0.355
    8.30,  -62.72,   0.0,   0.0692,    0.512,    0.355
    8.40,  -62.73,   0.0,   0.0691,    0.512,    0.355
    8.50,  -62.75,   0.0,    0.069,    0.512,    0.355
    8.60,  -62.76,   0.0,   0.0689,    0.512,    0.355
    8.70,  -62.77,   0.0,   0.0688,    0.512,    0.355
    8.80,  -62.78,   0.0,   0.0687,    0.512,    0.355
    8.90,  -62.79,   0.0,   0.0686,    0.512,    0.355
    9.00,  -62.79,   0.0,   0.0686,    0.512,    0.355
    9.10,  -62.80,   0.0,   0.0685,    0.512,    0.354
    9.20,  -62.81,   0.0,   0.0684,    0.512,    0.354
    9.30,  -62.82,   0.0,   0.0683,    0.513,    0.354
    9.40,  -62.83,   0.0,   0.0683,    0.513,    0.354
    9.50,  -62.83,   0.0,   0.0682,    0.513,    0.354
    9.60,  -62.84,   0.0,   0.0682,    0.513,    0.354
    9.70,  -62.84,   0.0,   0.0681,    0.513,    0.354
    9.80,  -62.85,   0.0,   0.0681,    0.513,    0.354
    9.90,  -62.85,   0.0,    0.068,    0.513,    0.354
   10.00,  -62.86,   0.0,    0.068,    0.513,    0.354
   10.10,  -62.86,   0.0,   0.0679,    0.513,    0.354
   10.20,  -62.87,   0.0,   0.0679,    0.514,    0.354
   10.30,  -62.87,   0.0,   0.0679,    0.514,    0.354
   10.40,  -62.87,   0.0,   0.0679,    0.514,    0.353
   10.50,  -62.87,   0.0,   0.0678,    0.514,    0.353
   10.60,  -62.87,   0.0,   0.0678,    0.514,    0.353
   10.70,  -62.88,   0.0,   0.0678,    0.514,    0.353
   10.80,  -62.88,   0.0,   0.0678,    0.514,    0.353
   10.90,  -62.88,   0.0,   0.0678,    0.514,    0.353
   11.00,  -62.88,   0.0,   0.0678,    0.514,    0.353
   11.10,  -62.87,   0.0,   0.0678,    0.515,    0.353
   11.20,  -62.87,   0.0,   0.0678,    0.515,    0.353
   11.30,  -62.87,   0.0,   0.0678,    0.515,    0.353
   11.40,  -62.87,   0.0,   0.0678,    0.515,    0.353
   11.50,  -62.87,   0.0,   0.0678,    0.515,    0.353
   11.60,  -62.87,   0.0,   0.0678,    0.515,    0.353
   11.70,  -62.86,   0.0,   0.0678,    0.515,    0.353
   11.80,  -62.86,   0.0,   0.0679,    0.515,    0.353
   11.90,  -62.86,   0.0,   0.0679,    0.515,    0.353
   12.00,  -62.85,   0.0,   0.0679,    0.515,    0.352
   12.10,  -62.85,   0.0,   0.0679,    0.515,    0.352
   12.20,  -62.84,   0.0,    0.068,    0.516,    0.352
   12.30,  -62.84,   0.0,    0.068,    0.516,    0.352
   12.40,  -62.84,   0.0,    0.068,    0.516,    0.352
   12.50,  -62.83,   0.0,   0.0681,    0.516,    0.352
   12.60,  -62.83,   0.0,   0.0681,    0.516,    0.352
   12.70,  -62.82,   0.0,   0.0681,    0.516,    0.352
   12.80,  -62.82,   0.0,   0.0682,    0.516,    0.352
   12.90,  -62.81,   0.0,   0.0682,    0.516,    0.352
   13.00,  -62.81,   0.0,   0.0682,    0.516,    0.352
   13.10,  -62.80,   0.0,   0.0683,    0.516,    0.352
   13.20,  -62.79,   0.0,   0.0683,    0.516,    0.352
   13.30,  -62.79,   0.0,   0.0684,    0.516,    0.352
   13.40,  -62.78,   0.0,   0.0684,    0.516,    0.352
   13.50,  -62.78,   0.0,   0.0685,    0.516,    0.352
   13.60,  -62.77,   0.0,   0.0685,    0.516,    0.352
   13.70,  -62.77,   0.0,   0.0685,    0.516,    0.352
   13.80,  -62.76,   0.0,   0.0686,    0.516,    0.352
   13.90,  -62.76,   0.0,   0.0686,    0.516,    0.352
   14.00,  -62.75,   0.0,   0.0687,    0.516,    0.352
   14.10,  -62.14,   6.0,   0.0687,    0.516,    0.352
   14.20,  -61.56,   6.0,   0.0711,    0.516,    0.352
   14.30,  -60.99,   6.0,   0.0747,    0.515,    0.353
   14.40,  -60.41,   6.0,    0.079,    0.514,    0.354
   14.50,  -59.83,   6.0,   0.0837,    0.512,    0.355
   14.60,  -59.22,   6.0,   0.0889,     0.51,    0.356
   14.70,  -58.58,   6.0,   0.0945,    0.508,    0.358
   14.80,  -57.90,   6.0,    0.101,    0.505,    0.359
   14.90,  -57.15,   6.0,    0.108,    0.502,    0.362
   15.00,  -56.30,   6.0,    0.115,    0.498,    0.364
   15.10,  -55.33,   6.0,    0.124,    0.493,    0.367
   15.20,  -54.15,   6.0,    0.135,    0.488,     0.37
   15.30,  -52.68,   6.0,    0.148,    0.482,    0.374
   15.40,  -50.70,   6.0,    0.165,    0.474,    0.378
   15.50,  -47.86,   6.0,    0.188,    0.465,    0.384
   15.60,  -43.30,   6.0,    0.222,    0.452,    0.391
   15.70,  -34.83,   6.0,    0.277,    0.434,    0.401
   15.75,  -28.70,   6.0,    0.329,    0.418,    0.409
   15.77,  -25.00,   6.0,    0.364,    0.408,    0.414
   15.80,  -20.22,   6.0,    0.403,    0.397,    0.419
   15.82,  -14.16,   6.0,    0.448,    0.385,    0.426
   15.84,  -11.01,   6.0,    0.475,    0.379,     0.43
   15.85,   -7.49,   6.0,    0.503,    0.373,    0.434
   15.86,   -3.62,   6.0,    0.533,    0.366,    0.439
   15.87,    0.56,   6.0,    0.563,     0.36,    0.444
   15.89,    4.99,   6.0,    0.596,    0.353,    0.449
   15.90,    9.57,   6.0,    0.628,    0.347,    0.455
   15.91,   14.18,   6.0,    0.662,     0.34,    0.461
   15.92,   18.67,   6.0,    0.695,    0.334,    0.468
   15.94,   22.89,   6.0,    0.727,    0.328,    0.474
   15.95,   26.69,   6.0,    0.758,    0.322,    0.482
   15.96,   29.97,   6.0,    0.787,    0.316,    0.489
   15.99,   35.86,   6.0,    0.839,    0.304,    0.505
   16.01,   38.38,   6.0,    0.882,    0.293,    0.521
   16.04,   38.87,   6.0,    0.914,    0.282,    0.537
   16.06,   38.34,   6.0,    0.937,    0.271,    0.552
   16.09,   37.33,   6.0,    0.954,    0.261,    0.567
   16.11,   36.05,   6.0,    0.966,    0.252,    0.581
   16.14,   34.59,   6.0,    0.975,    0.242,    0.595
   16.16,   33.00,   6.0,    0.981,    0.233,    0.607
   16.19,   31.30,   6.0,    0.985,    0.225,    0.619
   16.21,   29.51,   6.0,    0.988,    0.216,    0.631
   16.24,   27.66,   6.0,     0.99,    0.208,    0.642
   16.26,   25.75,   6.0,    0.992,    0.201,    0.652
   16.29,   23.81,   6.0,    0.993,    0.193,    0.661
   16.31,   21.83,   6.0,    0.993,    0.186,     0.67
   16.34,   19.83,   6.0,    0.994,    0.179,    0.678
   16.36,   17.82,   6.0,    0.994,    0.173,    0.686
   16.39,   15.80,   6.0,    0.994,    0.166,    0.694
   16.41,   13.79,   6.0,    0.993,     0.16,    0.701
   16.44,   11.78,   6.0,    0.993,    0.154,    0.707
   16.46,    9.78,   6.0,    0.992,    0.149,    0.713
   16.49,    7.80,   6.0,    0.991,    0.143,    0.719
   16.51,    5.83,   6.0,     0.99,    0.138,    0.724
   16.54,    3.89,   6.0,    0.989,    0.133,    0.729
   16.56,    1.97,   6.0,    0.988,    0.128,    0.733
   16.59,    0.07,   6.0,    0.986,    0.124,    0.738
   16.61,   -1.81,   6.0,    0.984,    0.119,    0.742
   16.64,   -3.66,   6.0,    0.982,    0.115,    0.745
   16.66,   -5.48,   6.0,     0.98,    0.111,    0.748
   16.69,   -7.28,   6.0,    0.977,    0.107,    0.751
   16.71,   -9.05,   6.0,    0.974,    0.104,    0.754
   16.74,  -10.79,   6.0,    0.971,      0.1,    0.757
   16.76,  -12.51,   6.0,    0.967,    0.097,    0.759
   16.79,  -14.20,   6.0,    0.963,   0.0939,    0.761
   16.81,  -15.87,   6.0,    0.959,    0.091,    0.763
   16.84,  -17.52,   6.0,    0.953,   0.0882,    0.764
   16.86,  -19.14,   6.0,    0.948,   0.0856,    0.766
   16.89,  -20.75,   6.0,    0.941,   0.0832,    0.767
   16.91,  -22.33,   6.0,    0.934,    0.081,    0.768
   16.94,  -23.90,   6.0,    0.927,   0.0789,    0.769
   16.96,  -25.45,   6.0,    0.918,    0.077,     0.77
   17.01,  -29.95,   6.0,      0.9,   0.0736,    0.771
   17.06,  -33.15,   6.0,    0.874,    0.071,    0.771
   17.11,  -36.35,   6.0,    0.844,   0.0691,     0.77
   17.16,  -39.63,   6.0,    0.807,   0.0679,    0.769
   17.21,  -43.05,   6.0,    0.764,   0.0673,    0.767
   17.26,  -46.65,   6.0,    0.714,   0.0673,    0.764
   17.31,  -50.45,   6.0,    0.654,   0.0681,    0.761
   17.36,  -54.42,   6.0,    0.584,   0.0696,    0.758
   17.41,  -58.40,   6.0,    0.504,   0.0718,    0.753
   17.46,  -62.12,   6.0,    0.417,   0.0748,    0.748
   17.51,  -65.24,   6.0,    0.328,   0.0786,    0.743
   17.61,  -70.67,   6.0,    0.176,   0.0879,    0.731
   17.71,  -70.96,   6.0,   0.0735,      0.1,    0.718
   17.81,  -70.95,   6.0,   0.0403,    0.112,    0.706
   17.91,  -70.88,   6.0,   0.0302,    0.124,    0.693
   18.01,  -70.80,   6.0,   0.0272,    0.136,    0.681
   18.11,  -70.72,   6.0,   0.0265,    0.148,    0.669
   18.21,  -70.62,   6.0,   0.0265,    0.159,    0.658
   18.31,  -70.53,   6.0,   0.0267,     0.17,    0.647
   18.41,  -70.43,   6.0,   0.0269,    0.181,    0.636
   18.51,  -70.33,   6.0,   0.0273,    0.191,    0.626
   18.61,  -70.22,   6.0,   0.0276,    0.201,    0.616
   18.71,  -70.10,   6.0,    0.028,    0.211,    0.606
   18.81,  -69.99,   6.0,   0.0283,    0.221,    0.596
   18.91,  -69.87,   6.0,   0.0288,    0.231,    0.587
   19.01,  -69.74,   6.0,   0.0292,     0.24,    0.578
   19.11,  -69.61,   6.0,   0.0296,    0.249,     0.57
   19.21,  -69.47,   6.0,   0.0301,    0.258,    0.561
   19.31,  -69.34,   6.0,   0.0306,    0.266,    0.553
   19.41,  -69.19,   6.0,   0.0311,    0.274,    0.545
   19.51,  -69.04,   6.0,   0.0316,    0.283,    0.537
   19.61,  -68.89,   6.0,   0.0322,     0.29,     0.53
   19.71,  -68.74,   6.0,   0.0328,    0.298,    0.523
   19.81,  -68.58,   6.0,   0.0334,    0.305,    0.516
   19.91,  -68.42,   6.0,   0.0341,    0.312,    0.509
   20.01,  -68.25,   6.0,   0.0347,    0.319,    0.503
   20.11,  -68.08,   6.0,   0.0354,    0.326,    0.497
   20.21,  -67.91,   6.0,   0.0361,    0.333,    0.491
   20.31,  -67.73,   6.0,   0.0369,    0.339,    0.485
   20.41,  -67.55,   6.0,   0.0377,    0.345,    0.479
   20.51,  -67.37,   6.0,   0.0385,    0.351,    0.474
   20.61,  -67.18,   6.0,   0.0393,    0.357,    0.469
   20.71,  -67.00,   6.0,   0.0402,    0.362,    0.464
   20.81,  -66.81,   6.0,   0.0411,    0.367,    0.459
   20.91,  -66.61,   6.0,    0.042,    0.372,    0.455
   21.01,  -66.42,   6.0,    0.043,    0.377,     0.45
   21.11,  -66.22,   6.0,    0.044,    0.382,    0.446
   21.21,  -66.03,   6.0,    0.045,    0.386,    0.442
   21.31,  -65.83,   6.0,   0.0461,    0.391,    0.438
   21.41,  -65.63,   6.0,   0.0471,    0.395,    0.435
   21.51,  -65.43,   6.0,   0.0483,    0.399,    0.431
   21.61,  -65.22,   6.0,   0.0494,    0.402,    0.428
   21.71,  -65.02,   6.0,   0.0506,    0.406,    0.425
   21.81,  -64.81,   6.0,   0.0518,    0.409,    0.422
   21.91,  -64.61,   6.0,    0.053,    0.412,    0.419
   22.01,  -64.40,   6.0,   0.0543,    0.415,    0.417
   22.11,  -64.19,   6.0,   0.0556,    0.418,    0.414
   22.21,  -63.99,   6.0,    0.057,    0.421,    0.412
   22.31,  -63.78,   6.0,   0.0583,    0.423,     0.41
   22.41,  -63.57,   6.0,   0.0598,    0.426,    0.408
   22.51,  -63.36,   6.0,   0.0612,    0.428,    0.406
   22.61,  -63.15,   6.0,   0.0627,     0.43,    0.404
   22.71,  -62.94,   6.0,   0.0642,    0.431,    0.402
   22.81,  -62.73,   6.0,   0.0657,    0.433,    0.401
   22.91,  -62.51,   6.0,   0.0673,    0.435,      0.4
   23.01,  -62.30,   6.0,    0.069,    0.436,    0.398
   23.11,  -62.09,   6.0,   0.0706,    0.437,    0.397
   23.21,  -61.87,   6.0,   0.0723,    0.438,    0.396
   23.31,  -61.66,   6.0,   0.0741,    0.439,    0.396
   23.41,  -61.44,   6.0,   0.0759,     0.44,    0.395
   23.51,  -61.22,   6.0,   0.0777,     0.44,    0.394
   23.61,  -60.99,   6.0,   0.0796,    0.441,    0.394
   23.71,  -60.77,   6.0,   0.0816,    0.441,    0.393
   23.81,  -60.54,   6.0,   0.0836,    0.441,    0.393
   23.91,  -60.31,   6.0,   0.0857,    0.441,    0.393
   24.01,  -60.07,   6.0,   0.0879,    0.441,    0.393
   24.11,  -59.83,   6.0,   0.0901,     0.44,    0.393
   24.21,  -59.59,   6.0,   0.0924,     0.44,    0.393
   24.31,  -59.33,   6.0,   0.0949,    0.439,    0.393
   24.41,  -59.07,   6.0,   0.0974,    0.438,    0.394
   24.51,  -58.80,   6.0,      0.1,    0.437,    0.394
   24.61,  -58.52,   6.0,    0.103,    0.436,    0.395
   24.71,  -58.22,   6.0,    0.106,    0.434,    0.396
   24.81,  -57.91,   6.0,    0.109,    0.433,    0.397
   24.91,  -57.58,   6.0,    0.112,    0.431,    0.398
   25.01,  -57.23,   6.0,    0.116,    0.429,    0.399
   25.11,  -56.84,   6.0,     0.12,    0.427,      0.4
   25.21,  -56.42,   6.0,    0.124,    0.424,    0.401
   25.31,  -55.95,   6.0,    0.129,    0.422,    0.403
   25.41,  -55.42,   6.0,    0.135,    0.419,    0.405
   25.51,  -54.80,   6.0,    0.141,    0.415,    0.407
   25.61,  -54.07,   6.0,    0.149,    0.411,    0.409
   25.71,  -53.18,   6.0,    0.157,    0.407,    0.412
   25.81,  -52.07,   6.0,    0.168,    0.402,    0.414
   25.91,  -50.59,   6.0,    0.182,    0.396,    0.418
   26.01,  -48.52,   6.0,      0.2,    0.389,    0.422
   26.11,  -45.41,   6.0,    0.226,     0.38,    0.427
   26.21,  -40.23,   6.0,    0.265,    0.367,    0.435
   26.31,  -30.32,   6.0,    0.329,    0.349,    0.445
   26.36,  -23.41,   6.0,    0.391,    0.334,    0.453
   26.39,  -19.39,   6.0,    0.431,    0.325,    0.459
   26.41,  -14.30,   6.0,    0.475,    0.315,    0.465
   26.44,   -8.09,   6.0,    0.525,    0.304,    0.472
   26.46,   -0.84,   6.0,    0.579,    0.294,     0.48
   26.47,    2.55,   6.0,    0.609,    0.289,    0.485
   26.49,    6.09,   6.0,    0.639,    0.283,     0.49
   26.50,    9.69,   6.0,    0.669,    0.278,    0.495
   26.51,   13.26,   6.0,    0.698,    0.273,    0.501
   26.52,   16.70,   6.0,    0.727,    0.268,    0.507
   26.54,   19.91,   6.0,    0.755,    0.263,    0.513
   26.55,   22.80,   6.0,    0.782,    0.258,     0.52
   26.57,   28.32,   6.0,     0.83,    0.249,    0.533
   26.60,   31.41,   6.0,     0.87,    0.239,    0.546
   26.62,   32.64,   6.0,    0.902,    0.231,     0.56
   26.65,   32.62,   6.0,    0.927,    0.222,    0.574
   26.67,   31.87,   6.0,    0.945,    0.214,    0.587
   26.70,   30.67,   6.0,    0.958,    0.206,      0.6
   26.72,   29.21,   6.0,    0.968,    0.198,    0.611
   26.75,   27.56,   6.0,    0.975,    0.191,    0.623
   26.77,   25.78,   6.0,     0.98,    0.184,    0.633
   26.80,   23.91,   6.0,    0.984,    0.177,    0.644
   26.82,   21.97,   6.0,    0.987,    0.171,    0.653
   26.85,   19.98,   6.0,    0.988,    0.164,    0.662
   26.87,   17.95,   6.0,     0.99,    0.158,     0.67
   26.90,   15.91,   6.0,     0.99,    0.152,    0.678
   26.92,   13.85,   6.0,    0.991,    0.147,    0.686
   26.95,   11.80,   6.0,    0.991,    0.141,    0.692
   26.97,    9.75,   6.0,     0.99,    0.136,    0.699
   27.00,    7.71,   6.0,     0.99,    0.131,    0.705
   27.02,    5.68,   6.0,    0.989,    0.127,     0.71
   27.05,    3.68,   6.0,    0.988,    0.122,    0.716
   27.07,    1.70,   6.0,    0.987,    0.118,     0.72
   27.10,   -0.25,   6.0,    0.985,    0.113,    0.725
   27.12,   -2.18,   6.0,    0.984,    0.109,    0.729
   27.15,   -4.08,   6.0,    0.982,    0.106,    0.733
   27.17,   -5.95,   6.0,    0.979,    0.102,    0.736
   27.20,   -7.79,   6.0,    0.977,   0.0985,     0.74
   27.22,   -9.60,   6.0,    0.973,   0.0952,    0.743
   27.25,  -11.39,   6.0,     0.97,    0.092,    0.745
   27.27,  -13.14,   6.0,    0.966,   0.0891,    0.748
   27.30,  -14.87,   6.0,    0.962,   0.0863,     0.75
   27.32,  -16.57,   6.0,    0.957,   0.0836,    0.752
   27.35,  -18.24,   6.0,    0.952,   0.0811,    0.754
